Time,Altitude (m),Orbital Velocity (m/s),Apoapsis (m),Periapsis (m),Inclination (deg),Battery (%),Inside Temp (K),Outside Temp (K)
6421.633582784053,198482.3564123523,2318.5518380200283,1515669.999883017,798330.0000001537,1.136209343069475,44.39949729225852,308.56867393417343,308.56867393417343
6422.673582784076,198507.07090857008,2318.491004599806,1515669.9999001788,798330.0000004822,1.136209343063898,44.37323483553799,308.5647195980338,308.5647195980338
6423.673582784098,198532.58457011834,2318.4282064386225,1515669.9999039413,798330.0000005385,1.1362093430628004,44.34797807173295,308.56077630313087,308.56077630313087
6424.69358278412,198560.37536640489,2318.3598061678335,1515669.9998760165,798329.9999998191,1.1362093430670683,44.322221929376774,308.5566188739657,308.5566188739657
6425.713582784142,198589.95013351878,2318.2870182254464,1515669.9998751776,798330.0000003766,1.1362093430675597,44.296465787020594,308.5523315004148,308.5523315004148
6426.713582784164,198620.676450397,2318.2113995656955,1515669.9998786761,798330.0000003781,1.1362093430681495,44.27121249112216,308.548008066337,308.548008066337
6427.733582784186,198653.7829408293,2318.129927097815,1515669.9998562688,798329.9999996737,1.1362093430695719,44.245456348765984,308.54348138023585,308.54348138023585
6428.733582784208,198687.97086985328,2318.045797554362,1515669.9998971263,798329.9999996509,1.1362093430627318,44.22020305286754,308.53893421970304,308.53893421970304
6429.75358278423,198724.60727751197,2317.955647577005,1515669.999891825,798330.0000001012,1.1362093430629792,44.19444691051137,308.53418979348845,308.53418979348845
6430.7735827842525,198763.02537152765,2317.861118776187,1515669.9998652237,798329.9999994948,1.1362093430653615,44.16868730024858,308.52934285825773,308.52934285825773
6431.773582784274,198802.41928093613,2317.7641946177077,1515669.9998784396,798330.00000011,1.1362093430659015,44.14343400435014,308.52449592604546,308.52449592604546
6432.793582784297,198844.36421280482,2317.6610002453376,1515669.9998572336,798329.999999754,1.1362093430710682,44.11767439408736,308.51945945764135,308.51945945764135
6433.7935827843185,198887.21470949636,2317.5555846656443,1515669.9998247095,798329.9999982959,1.1362093430716231,44.09242456609553,308.5144349803004,308.5144349803004
6434.813582784341,198932.684193676,2317.4437335848893,1515669.9998303065,798329.9999975892,1.1362093430696163,44.066668423739344,308.5092254440243,308.5092254440243
6435.833582784363,198979.93247330096,2317.3275148819635,1515669.9997929037,798329.999994892,1.136209343076195,44.04090881347656,308.5039342818789,308.5039342818789
6436.853582784385,199028.95889245498,2317.2069311240684,1515669.999814714,798329.9999963937,1.1362093430746179,44.01515267112038,308.49856512260277,308.49856512260277
6437.853582784407,199078.7495362513,2317.0844767547933,1515669.9997735699,798329.9999957826,1.136209343082147,43.989899375221945,308.49322886163293,308.49322886163293
6438.873582784429,199131.29533735942,2316.9552563137377,1515669.9997869772,798329.99999619,1.136209343082588,43.964143232865766,308.48771529889007,308.48771529889007
6439.893582784452,199185.6171779834,2316.8216789413705,1515669.9998224252,798329.9999961858,1.136209343078482,43.938383622602984,308.48213359492894,308.48213359492894
6440.913582784474,199241.71430498024,2316.683747542387,1515669.9998320015,798329.9999961386,1.1362093430763014,43.912627480246805,308.47648676269307,308.47648676269307
6441.933582784496,199299.58594083088,2316.541465140267,1515669.9998649622,798329.9999977531,1.136209343073996,43.886871337890625,308.47077767974974,308.47077767974974
6442.933582784518,199358.04472406756,2316.397751701134,1515669.9998803348,798329.9999985785,1.1362093430692015,43.86161804199219,308.4651227594868,308.4651227594868
6443.93358278454,199418.2075610389,2316.2498621973145,1515669.9998784969,798329.9999988849,1.1362093430677198,43.83636474609375,308.45941312435275,308.45941312435275
6444.953582784562,199481.32834047487,2316.0947159436805,1515669.9998972546,798329.9999996285,1.1362093430621607,43.81060513583097,308.4535353851179,308.4535353851179
6445.953582784584,199544.93090080505,2315.9384003322807,1515669.999887536,798329.9999992654,1.1362093430587041,43.78535530783913,308.44772234624315,308.44772234624315
6446.973582784606,199611.55846158566,2315.774666156065,1515669.999852968,798329.9999994417,1.1362093430634106,43.75959916548295,308.44174373645154,308.44174373645154
6447.993582784628,199679.95541210752,2315.6066007823474,1515669.9998579768,798329.9999990073,1.1362093430560267,43.73383955522017,308.43571739460015,308.43571739460015
6448.99358278465,199748.7280233337,2315.43762967668,1515669.9998315275,798329.9999969316,1.1362093430620943,43.708586259321734,308.4297648725802,308.4297648725802
6449.993582784672,199819.19949493767,2315.264502595215,1515669.9998171604,798329.9999941584,1.1362093430602804,43.6833329634233,308.4237703844463,308.4237703844463
6451.013582784694,199892.8295916512,2315.083635236873,1515669.9998088167,798329.9999944627,1.1362093430616902,43.65757682106712,308.4176146844333,308.4176146844333
6452.013582784716,199966.72988491482,2314.902124185199,1515669.999754601,798329.9999920722,1.13620934306457,43.63232699307528,308.41154095695,308.41154095695
6453.033582784738,200043.8553633975,2314.712712958959,1515669.9996845638,798329.9999897728,1.1362093430683267,43.6065673828125,308.4053079987749,308.4053079987749
6454.03358278476,200121.18047944747,2314.5228334090357,1515669.9996947765,798329.9999895884,1.1362093430666138,43.58131408691406,308.3991618625285,308.3991618625285
6455.0535827847825,200201.7971681815,2314.3248944589864,1515669.9996994853,798329.9999900132,1.1362093430625886,43.555554476651274,308.39285829499414,308.39285829499414
6456.053582784804,200282.54292666726,2314.126662542831,1515669.9997562086,798329.9999910201,1.136209343054041,43.530304648659445,308.3866459778942,308.3866459778942
6457.073582784827,200366.64646960632,2313.920212650431,1515669.9997108225,798329.9999900566,1.136209343064562,43.504545038396664,308.38027787560014,308.38027787560014
6458.073582784848,200450.80850983865,2313.7136451635192,1515669.9996977174,798329.9999885161,1.1362093430622204,43.47929521040483,308.37400507579645,308.37400507579645
6459.05358278487,200534.926527192,2313.507211692027,1515669.9996406203,798329.9999868821,1.136209343067842,43.454548228870735,308.36783057566475,308.36783057566475
6460.073582784892,200624.20013429224,2313.2881543281624,1515669.9996102569,798329.9999862049,1.1362093430721172,43.42878861860795,308.3613767543556,308.3613767543556
6461.093582784914,200715.22917576449,2313.064819651394,1515669.9996781459,798329.9999873892,1.1362093430664841,43.403032476251774,308.354896318847,308.354896318847
6462.113582784937,200808.01240150968,2312.837212422845,1515669.999628626,798329.999984029,1.1362093430736242,43.37727286598899,308.3483904922511,308.3483904922511
6463.133582784959,200902.54853803164,2312.6053375867746,1515669.9996129607,798329.9999832276,1.1362093430746931,43.35151672363281,308.34186046266325,308.34186046266325
6464.153582784981,200998.83628851955,2312.369200137108,1515669.9996328903,798329.9999851775,1.1362093430690754,43.32575711337003,308.3353073639806,308.3353073639806
6465.173582785003,201096.8743329601,2312.1288051442384,1515669.9996399635,798329.9999860951,1.1362093430714306,43.300000971013844,308.32873227542115,308.32873227542115
6466.193582785026,201196.6613281843,2311.88415777786,1515669.9996457815,798329.9999860094,1.1362093430710816,43.27424136075106,308.3221362265295,308.3221362265295
6467.213582785048,201298.1959078489,2311.635263307966,1515669.999696767,798329.9999880083,1.1362093430693574,43.24848521839489,308.3155202013335,308.3155202013335
6468.23358278507,201401.47668269684,2311.3821270417498,1515669.9996650305,798329.9999857879,1.1362093430703444,43.2227256081321,308.30888514075457,308.30888514075457
6469.2535827850925,201506.5022403507,2311.124754437069,1515669.9996441514,798329.9999860473,1.1362093430781135,43.19696946577592,308.30223194447393,308.30223194447393
6470.273582785115,201613.27114559896,2310.863151002683,1515669.9996243205,798329.9999840909,1.136209343078287,43.17120985551314,308.29556147271904,308.29556147271904
6471.293582785137,201721.7819403396,2310.597322350068,1515669.999630987,798329.999984359,1.13620934307863,43.14545718106357,308.2888745479649,308.2888745479649
6472.313582785159,201832.03314371174,2310.3272741397172,1515669.999563586,798329.999981318,1.1362093430890954,43.11969757080078,308.2821719566279,308.2821719566279
6473.3335827851815,201944.02325209696,2310.053012156877,1515669.9994788333,798329.9999797116,1.1362093430920002,43.0939414284446,308.2754544506682,308.2754544506682
6474.353582785204,202057.7507392465,2309.774542284396,1515669.9994670667,798329.9999803252,1.136209343090444,43.06818181818181,308.26872274896215,308.26872274896215
6475.373582785226,202173.21405630896,2309.4918704471056,1515669.9994625559,798329.9999817617,1.1362093430909528,43.04242567582564,308.2619775383779,308.2619775383779
6476.393582785248,202290.4116319553,2309.205002671152,1515669.9994766952,798329.9999819506,1.136209343083443,43.01666953346946,308.25521947496327,308.25521947496327
6477.413582785271,202409.34187245567,2308.913945057019,1515669.9994624972,798329.9999813372,1.136209343085538,42.99090992320668,308.24844918528146,308.24844918528146
6478.433582785293,202530.00316168298,2308.6187038012527,1515669.9994401864,798329.999979526,1.13620934308962,42.96515031294389,308.2416672677565,308.2416672677565
6479.453582785315,202652.39386121405,2308.3192851760873,1515669.9993935595,798329.9999791665,1.1362093430970097,42.93939417058771,308.23487429386785,308.23487429386785
6480.473582785337,202776.5123104162,2308.0156955608945,1515669.9994148868,798329.9999802248,1.1362093430886668,42.91363802823153,308.22807080876004,308.22807080876004
6481.49358278536,202902.356826521,2307.7079413850615,1515669.999451241,798329.9999822873,1.1362093430807392,42.88787841796875,308.22125733254717,308.22125733254717
6482.4935827853815,203027.4077910384,2307.4021850045215,1515669.999439003,798329.9999809377,1.136209343083141,42.86262858997692,308.2145682340752,308.2145682340752
6483.513582785404,203156.6655440603,2307.086202695447,1515669.9995127611,798329.9999829595,1.13620934308419,42.83686897971413,308.20773641671695,308.20773641671695
6484.533582785426,203287.64421811898,2306.7660754867893,1515669.9995318616,798329.9999825497,1.1362093430972886,42.81111283735795,308.20089602495733,308.20089602495733
6485.553582785448,203420.34204317012,2306.441810137564,1515669.999501964,798329.9999763747,1.1362093430996114,42.78535322709517,308.19404749254767,308.19404749254767
6486.5735827854705,203554.75722732884,2306.113413537283,1515669.9995712303,798329.9999790459,1.136209343098577,42.75959708473899,308.18719123378014,308.18719123378014
6487.593582785493,203690.887957006,2305.7808925723234,1515669.999607529,798329.9999818207,1.1362093430999882,42.7338374744762,308.18032764349203,308.18032764349203
6488.613582785515,203828.73239709588,2305.444254245688,1515669.999619117,798329.9999832452,1.1362093430969704,42.70808133212003,308.1734570927324,308.1734570927324
6489.633582785537,203968.28869101626,2305.103505639404,1515669.9995990621,798329.9999830493,1.136209343101208,42.68232172185725,308.1665799270173,308.1665799270173
6490.65358278556,204109.5549607193,2304.75865392402,1515669.9995967145,798329.9999832232,1.1362093430970541,42.65656557950106,308.159696470284,308.159696470284
6491.653582785581,204249.70948297367,2304.4165877619357,1515669.999580818,798329.9999796055,1.1362093430962472,42.631315751509234,308.1529421716231,308.1529421716231
6492.673582785604,204394.35654948663,2304.063631715617,1515669.9995931252,798329.9999802132,1.1362093430967337,42.605556141246446,308.14604714586494,308.14604714586494
6493.6735827856255,204537.8218662839,2303.7136342584,1515669.9995657627,798329.9999774273,1.1362093430929583,42.58030284534801,308.1392820526698,308.1392820526698
6494.693582785648,204685.84211570967,2303.3526028549213,1515669.9995575242,798329.9999762775,1.1362093430831417,42.55454670299183,308.13237654965855,308.13237654965855
6495.69358278567,204832.61068217317,2302.9947028226948,1515669.9995449581,798329.9999753517,1.1362093430843239,42.52929340709339,308.1256016840874,308.1256016840874
6496.713582785692,204983.99633725744,2302.6256256622455,1515669.9995692498,798329.9999740729,1.1362093430827995,42.50353379683061,308.1186866998669,308.1186866998669
6497.733582785714,205137.0783490513,2302.2524971919106,1515669.9995108042,798329.9999690434,1.1362093430898963,42.47777765447443,308.11176727856406,308.11176727856406
6498.733582785736,205288.80357047333,2301.882759578755,1515669.9995785556,798329.9999739896,1.1362093430820546,42.45252435857599,308.10497943792694,308.10497943792694
6499.733582785758,205442.1553649694,2301.5091428403816,1515669.9996161486,798329.9999762947,1.136209343080665,42.427271062677555,308.09818774367307,308.09818774367307
6500.75358278578,205600.24785268912,2301.1240652186416,1515669.9996051644,798329.9999756846,1.1362093430758662,42.401518388227984,308.0912564422235,308.0912564422235
6501.753582785802,205756.87931057753,2300.742635468006,1515669.9996075244,798329.9999745088,1.1362093430787383,42.37626162442294,308.0844575332992,308.0844575332992
6502.753582785824,205915.13134865602,2300.357349335885,1515669.9996465498,798329.9999711809,1.1362093430832734,42.35101179643111,308.0776553175996,308.0776553175996
6503.773582785846,206078.21585194406,2299.9603925673264,1515669.9996743787,798329.9999750743,1.1362093430749423,42.32525218616832,308.07071382165475,308.07071382165475
6504.773582785868,206239.73527453234,2299.5673399630396,1515669.9997233273,798329.9999800933,1.1362093430703957,42.29999889026988,308.06390542062536,308.06390542062536
6505.79358278589,206406.14824310597,2299.1624775197256,1515669.9996643702,798329.9999782969,1.136209343077689,42.2742392800071,308.05695793472165,308.05695793472165
6506.813582785912,206574.23864481878,2298.7536355135935,1515669.9996291327,798329.9999781467,1.1362093430703633,42.24848660555753,308.0500076533861,308.0500076533861
6507.833582785935,206744.00425414566,2298.3408223556294,1515669.9995934789,798329.9999751092,1.1362093430750122,42.22272699529475,308.0430547208075,308.0430547208075
6508.853582785957,206915.4428257913,2297.924046555468,1515669.9996660778,798329.9999748477,1.1362093430708413,42.19697085293856,308.0360992743705,308.0360992743705
6509.873582785979,207088.55209473032,2297.5033166056505,1515669.99961798,798329.9999723864,1.136209343076655,42.17121471058239,308.02914144495594,308.02914144495594
6510.893582786001,207263.32977629406,2297.078641183333,1515669.9996572216,798329.9999748525,1.1362093430755458,42.1454551003196,308.0221813572349,308.0221813572349
6511.913582786024,207439.77356634988,2296.650028946485,1515669.9996672687,798329.9999722106,1.1362093430770503,42.11969895796342,308.0152191299521,308.0152191299521
6512.933582786046,207617.8811414122,2296.2174886608173,1515669.9996699472,798329.9999733125,1.1362093430771452,42.09393934770064,308.0082548762255,308.0082548762255
6513.953582786068,207797.65015858563,2295.7810291110277,1515669.9995129318,798329.9999701629,1.1362093430864137,42.06818320534446,308.001288703824,308.001288703824
6514.97358278609,207979.07825582754,2295.3406592885467,1515669.999553356,798329.999977337,1.1362093430875442,42.04242359508167,307.99432071541605,307.99432071541605
6515.993582786113,208162.16305195994,2294.8963880676934,1515669.999493153,798329.9999729234,1.136209343089032,42.0166674527255,307.9873510087936,307.9873510087936
6517.013582786135,208346.9021468591,2294.448224521914,1515669.999490466,798329.9999754691,1.136209343088148,41.99090784246272,307.9803796771345,307.9803796771345
6518.033582786157,208533.29312146385,2293.9961777346584,1515669.999522001,798329.9999793285,1.136209343083424,41.96515170010653,307.97340680922997,307.97340680922997
6519.0535827861795,208721.33353791072,2293.54025684953,1515669.9995455544,798329.999978056,1.1362093430756974,41.93939208984375,307.9664324896955,307.9664324896955
6520.073582786202,208911.0209397399,2293.080471070803,1515669.9995005112,798329.9999723132,1.1362093430645017,41.91363594748757,307.9594567991942,307.9594567991942
6521.093582786224,209102.35285179561,2292.6168297043996,1515669.9994397257,798329.9999716271,1.1362093430670557,41.88787633722479,307.95247981460585,307.95247981460585
6522.113582786246,209295.32678041665,2292.1493421372497,1515669.999508115,798329.9999816478,1.1362093430690159,41.86212366277521,307.94550160921807,307.94550160921807
6523.133582786269,209489.94021356688,2291.678017732886,1515669.9995557624,798329.9999855688,1.1362093430585145,41.83636405251243,307.938522252953,307.938522252953
6524.153582786291,209686.19062108663,2291.202865978865,1515669.9996080834,798329.9999902262,1.1362093430587135,41.81060791015625,307.9315418125219,307.9315418125219
6525.173582786313,209884.07545450027,2290.7238964226754,1515669.9997176225,798329.999994759,1.1362093430571414,41.78484829989347,307.92456035160905,307.92456035160905
6526.193582786335,210083.59214738559,2290.241118602952,1515669.9996733288,798329.9999896791,1.136209343063799,41.75909215753729,307.9175779309761,307.9175779309761
6527.213582786358,210284.73811534804,2289.7545422444978,1515669.9997164735,798329.9999882382,1.1362093430652576,41.73333601518111,307.91059460845435,307.91059460845435
6528.23358278638,210487.51075606106,2289.2641770193763,1515669.9996734892,798329.9999914019,1.1362093430678963,41.70757640491832,307.9036104388363,307.9036104388363
6529.253582786402,210691.90744954732,2288.7700327227612,1515669.999613701,798329.999986481,1.136209343077368,41.68181679465554,307.8966254738678,307.8966254738678
6530.273582786424,210897.9255581965,2288.2721192084837,1515669.9996003408,798329.9999895296,1.1362093430725952,41.65606065229936,307.8896397622715,307.8896397622715
6531.293582786447,211105.56242683856,2287.7704463595987,1515669.9995806206,798329.9999870413,1.1362093430767524,41.63030450994319,307.8826533498155,307.8826533498155
6532.313582786469,211314.81538296025,2287.265024121527,1515669.999530152,798329.9999843378,1.1362093430767914,41.6045448996804,307.87566627940186,307.87566627940186
6533.333582786491,211525.68173673446,2286.7558625382835,1515669.9995517496,798329.9999844698,1.1362093430884,41.57878528941762,307.8686785911569,307.8686785911569
6534.3535827865135,211738.15878111904,2286.24297163957,1515669.9995367602,798329.9999798901,1.1362093430810847,41.55302914706143,307.8616903224849,307.8616903224849
6535.373582786536,211952.24379207124,2285.7263615868114,1515669.9995935354,798329.999978617,1.1362093430764864,41.52727300470526,307.8547015082851,307.8547015082851
6536.393582786558,212167.93402850372,2285.206042515634,1515669.9995534283,798329.9999828317,1.1362093430792843,41.50151686234908,307.8477121810863,307.8477121810863
6537.41358278658,212385.2267324708,2284.682024694299,1515669.9995549582,798329.999983925,1.1362093430713367,41.4757607199929,307.84072237105045,307.84072237105045
6538.4335827866025,212604.11912940163,2284.1543184187367,1515669.9995995425,798329.999983049,1.1362093430736218,41.45000110973011,307.83373210592976,307.83373210592976
6539.453582786625,212824.60842799197,2283.6229340131663,1515669.9996198113,798329.9999879055,1.13620934306788,41.42424496737394,307.82674141107503,307.82674141107503
6540.473582786647,213046.6918205216,2283.087881863625,1515669.9995702293,798329.9999813723,1.1362093430738813,41.398485357111156,307.81975030945597,307.81975030945597
6541.493582786669,213270.3664828653,2282.5491724377266,1515669.9995075287,798329.9999753581,1.1362093430798776,41.37272921475497,307.81275882171656,307.81275882171656
6542.513582786692,213495.62957454275,2282.006816240573,1515669.9994294909,798329.9999784967,1.1362093430827722,41.34696960449219,307.8057669662231,307.8057669662231
